Time (ms),Voltage (mV)
1407.991886138916,1983.9375
1416.5172576904297,2585.25
1423.3856201171875,2925.9375
1431.7905902862549,3111.9375
1440.096378326416,3028.6875
1448.354959487915,2633.8125
1455.1568031311035,2198.25
1463.1178379058838,1654.5
1471.0955619812012,1197.75
1479.1793823242188,941.4375
1486.0281944274902,930.0
1493.464708328247,1114.6875
1500.3042221069336,1462.3125
1507.0669651031494,1909.3125
1514.3992900848389,2448.75
1521.2829113006592,2830.875
1528.4993648529053,3065.25
1535.2833271026611,3108.9375
1542.5868034362793,2911.3125
1549.4844913482666,2563.6875
1556.3011169433594,2116.3125
1563.7249946594238,1650.375
1570.5368518829346,1250.0625
1577.9321193695068,961.5
1584.852695465088,918.375
1591.8362140655518,1073.4375
1598.8051891326904,1398.75
1605.5948734283447,1835.25
1613.3687496185303,2379.1875
1620.2020645141602,2778.75
1627.7122497558594,3039.9375
1634.5140933990479,3115.5
1641.3838863372803,2991.75
1648.557424545288,2627.25
1655.3654670715332,2190.75
1662.7297401428223,1722.0
1669.501543045044,1305.9375
1678.0266761779785,960.5625
1684.931993484497,918.9375
1692.2905445098877,1075.3125
1699.1887092590332,1402.125
1706.2187194824219,1838.8125
1714.9255275726318,2456.25
1721.8124866485596,2836.3125
1729.2771339416504,3088.3125
1736.1156940460205,3095.0625
1743.57271194458,2906.8125
1751.60551071167,2486.625
1759.235143661499,1951.125
1766.160011291504,1498.6875
1773.0796337127686,1139.625
1780.8837890625,923.8125
1787.8363132476807,950.8125
1795.7587242126465,1223.25
1802.5565147399902,1615.3125
1809.7245693206787,2157.1875
1817.7525997161865,2663.8125
1824.7296810150146,2976.0
1832.3795795440674,3113.4375
1839.7858142852783,3022.3125
1848.7770557403564,2620.6875
1856.5616607666016,2104.6875
1864.194393157959,1639.125
1870.9940910339355,1241.25
1878.340244293213,957.75
1885.17427444458,919.6875
1892.155647277832,1079.8125
1900.3190994262695,1476.0
1907.1989059448242,1925.4375
1914.5817756652832,2463.5625
1921.438455581665,2841.5625
1928.8909435272217,3069.9375
1935.71138381958,3107.0625
1942.7270889282227,2901.9375
1950.6771564483643,2549.625
1957.4689865112305,2100.5625
1965.0294780731201,1562.25
1971.832275390625,1184.4375
1979.3486595153809,936.75
1986.1810207366943,933.9375
1993.602991104126,1126.125
2001.648187637329,1549.875
2008.962631225586,2086.6875
2015.9313678741455,2537.8125
2022.7408409118652,2893.875
2030.3974151611328,3105.1875
2037.2025966644287,3073.875
2044.5265769958496,2850.5625
2051.339626312256,2475.75
2058.2499504089355,2017.875
2065.5674934387207,1488.0
2072.4029541015625,1132.3125
2080.076217651367,935.8125
2088.2744789123535,978.5625
2095.686197280884,1231.6875
2102.946996688843,1626.375
2110.2681159973145,2169.1875
2118.1986331939697,2673.9375
2125.0696182250977,2981.4375
2132.1353912353516,3114.1875
2138.8943195343018,3047.625
2146.172523498535,2794.3125
2154.055118560791,2324.8125
2161.348581314087,1779.0
2168.1621074676514,1352.0625
2174.9751567840576,1044.375
2182.020425796509,912.75
2189.1558170318604,980.0625
2196.57826423645,1292.4375
2204.42795753479,1781.25
2211.639165878296,2250.75
2218.7297344207764,2676.9375
2225.6712913513184,2983.6875
2233.724594116211,3117.0
2240.4913902282715,3015.9375
2247.715473175049,2672.0625
2254.479169845581,2244.5625
2261.6093158721924,1775.4375
2268.5387134552,1348.6875
2275.498151779175,1042.875
2283.5464477539062,910.125
2290.3244495391846,1011.75
2297.5142002105713,1356.9375
2304.3112754821777,1785.0
2311.5322589874268,2254.5
2318.366050720215,2680.125
2325.4261016845703,2985.375
2332.2646617889404,3114.75
2339.2245769500732,3045.1875
2347.261428833008,2730.375
2354.0549278259277,2317.125
2361.3851070404053,1771.3125
2368.201494216919,1345.875
2375.053882598877,1041.0
2382.054567337036,912.375
2389.209747314453,983.0625
2396.714687347412,1298.4375
2404.574394226074,1788.9375
2411.6885662078857,2258.4375
2419.7487831115723,2744.625
2429.0082454681396,3075.5625
2435.8208179473877,3104.25
2442.8162574768066,2935.875
2450.789213180542,2532.5625
2457.5395584106445,2080.5
2465.895175933838,1474.125
2472.7725982666016,1122.75
2480.168104171753,932.625
2488.1856441497803,958.6875
2495.3157901763916,1188.75
2502.055883407593,1567.875
2510.303020477295,2185.125
2518.2747840881348,2686.5
2525.385618209839,2988.9375
2533.4393978118896,3116.8125
2540.2448177337646,3010.5
2547.46413230896,2724.5625
2554.1961193084717,2309.4375
2562.5598430633545,1686.9375
2570.5347061157227,1221.75
2577.8775215148926,974.25
2585.843563079834,924.0
2593.475818634033,1140.9375
2601.445198059082,1571.625
2608.2684993743896,2031.75
2615.3905391693115,2488.875
2622.1835613250732,2859.9375
2629.523515701294,3095.625
2637.477397918701,3066.75
2644.8137760162354,2834.8125
2651.6215801239014,2454.1875
2658.421039581299,1993.875
2666.501998901367,1467.375
2673.7756729125977,1118.25
2681.037664413452,918.5625
2687.80255317688,961.125
2696.2714195251465,1248.75
2704.1752338409424,1723.875
2711.630344390869,2270.0625
2718.543529510498,2693.0625
2725.5008220672607,2992.875
2733.6103916168213,3116.625
2740.3855323791504,3007.3125
2747.6274967193604,2718.375
2754.3811798095703,2301.5625
2762.822151184082,1679.8125
2769.5956230163574,1272.75
2777.817726135254,971.0625
2786.0264778137207,924.9375
2793.5004234313965,1145.8125
2801.4283180236816,1579.3125
2808.284044265747,2040.0
2815.2873516082764,2496.1875
2822.0794200897217,2865.0
2829.336404800415,3079.6875
2836.8263244628906,3085.6875
2845.092296600342,2829.375
2853.4953594207764,2297.8125
2861.0997200012207,1828.875
2867.9890632629395,1393.3125
2875.028371810913,1070.0625
2882.3697566986084,911.25
2889.234781265259,990.5625
2896.8467712402344,1313.8125
2903.6660194396973,1731.75
2911.163806915283,2200.5
2918.0383682250977,2635.6875
2924.940347671509,2958.375
2932.114839553833,3116.25
2938.9007091522217,3036.375
2946.504831314087,2771.0625
2954.432725906372,2294.0625
2961.6763591766357,1747.875
2968.492269515991,1326.75
2975.611925125122,1029.75
2982.5336933135986,911.25
2989.426374435425,991.6875
2996.8936443328857,1316.8125
3003.7121772766113,1735.5
3011.1594200134277,2204.625
3018.026113510132,2639.0625
3024.9252319335938,2960.4375
3032.095432281494,3116.25
3042.3550605773926,2922.375
3050.3787994384766,2510.8125
3057.20591545105,2056.5
3064.579486846924,1594.5
3071.4240074157715,1208.0625
3078.754663467407,944.625
3085.59250831604,927.1875
3092.7653312683105,1106.0625
3099.6627807617188,1449.375
3106.724500656128,1894.6875
3114.093065261841,2435.25
3120.9628582000732,2820.9375
3128.142833709717,3060.5625
3134.951114654541,3110.625
3141.9146060943604,2962.6875
3149.942636489868,2576.25
3156.782865524292,2131.125
3164.141893386841,1590.9375
3170.9487438201904,1205.4375
3178.276538848877,966.375
3185.114622116089,916.6875
3192.103862762451,1065.5625
3200.155735015869,1452.75
3206.9571018218994,1898.625
3214.9710655212402,2438.625
3222.949504852295,2875.125
3230.437994003296,3100.125
3237.2825145721436,3081.5625
3244.5244789123535,2870.4375
3251.3370513916016,2504.0625
3258.207321166992,2048.625
3265.674114227295,1515.75
3272.495746612549,1151.0625
3280.097246170044,926.625
3286.8804931640625,945.9375
3294.459581375122,1158.375
3302.4158477783203,1597.5
3309.542655944824,2138.4375
3316.4401054382324,2583.0
3323.272705078125,2924.25
3330.7321071624756,3100.5
3337.5720977783203,3080.8125
3345.571756362915,2815.6875
3352.3995876312256,2428.3125
3359.760046005249,1887.0
3367.1889305114746,1443.0
3374.055862426758,1101.9375
3381.443738937378,915.5625
3388.2265090942383,969.9375
3395.5025672912598,1213.125
3402.3046493530273,1601.4375
3409.491539001465,2142.1875
3416.3951873779297,2586.0
3423.194646835327,2926.3125
3430.6647777557373,3101.4375
3437.4539852142334,3079.875
3448.54474067688,2632.6875
3456.5556049346924,2118.9375
3464.02645111084,1653.0
3470.8757400512695,1252.125
3478.0914783477783,962.25
3484.9801063537598,918.1875
3491.9235706329346,1071.9375
3498.9101886749268,1396.5
3505.7132244110107,1832.4375
3513.34285736084,2376.5625
3521.3003158569336,2831.4375
3528.5472869873047,3065.25
3535.3832244873047,3108.9375
3542.4389839172363,2954.4375
3549.351215362549,2562.375
3556.187629699707,2115.1875
3563.608169555664,1649.25
3570.425033569336,1249.125
3577.8300762176514,961.125
3584.7692489624023,918.5625
3591.5873050689697,1074.0
3598.7443923950195,1399.6875
3605.5819988250732,1836.375
3613.46173286438,2380.5
3621.518611907959,2834.25
3629.1565895080566,3087.1875
3635.929584503174,3095.8125
3643.430709838867,2908.5
3650.299072265625,2558.8125
3657.1168899536133,2111.0625
3664.768934249878,1572.0
3671.529531478882,1191.5625
3679.1393756866455,939.1875
3685.9138011932373,931.6875
3693.4456825256348,1120.3125
3700.3705501556396,1470.1875
3707.27276802063,1918.3125
3715.593099594116,2528.4375
3722.4576473236084,2887.6875
3730.2372455596924,3103.3125
3737.098455429077,3076.3125
3744.3795204162598,2857.125
3751.3296604156494,2485.5
3758.812665939331,2028.1875
3765.643835067749,1497.1875
3773.526191711426,1092.75
3781.564474105835,913.875
3789.531946182251,1004.625
3797.311544418335,1342.3125
3804.121971130371,1767.5625
3811.58447265625,2236.3125
3818.3915615081787,2665.5
3826.00998878479,3012.375
3833.1284523010254,3117.1875
3843.621015548706,2903.4375
3851.7417907714844,2481.75
3859.2934608459473,1945.125
3866.497278213501,1493.625
3873.372793197632,1136.0625
3880.815029144287,922.6875
3887.6075744628906,952.3125
3894.8452472686768,1173.75
3901.7155170440674,1548.0
3908.8058471679688,2084.25
3915.6742095947266,2535.75
3922.6126670837402,2892.375
3931.0615062713623,3104.625
3937.8621578216553,3074.4375
3945.1403617858887,2798.4375
3951.902389526367,2404.875
3959.346055984497,1941.1875
3966.264009475708,1490.0625
3973.10471534729,1133.625
3980.55100440979,922.125
3987.3223304748535,953.4375
3994.605302810669,1176.75
4001.4379024505615,1551.5625
4008.2335472106934,2010.0
4015.3634548187256,2468.8125
4022.1543312072754,2845.3125
4029.6216011047363,3091.125
4037.57905960083,3073.3125
4045.121431350708,2795.625
4051.9590377807617,2401.3125
4059.391736984253,1937.25
4066.26033782959,1486.6875
4073.0509757995605,1131.0
4080.449104309082,921.1875
4087.2113704681396,954.5625
4094.604730606079,1179.375
4101.4649868011475,1554.9375
4108.2563400268555,2013.5625
4115.8106327056885,2542.3125
4122.6701736450195,2897.0625
4130.164384841919,3092.0625
4136.979341506958,3091.5
4144.427537918091,2847.0
4151.228904724121,2470.6875
4158.095836639404,2012.25
4165.3242111206055,1553.625
4172.132968902588,1178.25
4179.562330245972,934.6875
4187.49475479126,955.6875
4194.829702377319,1182.0
4201.654434204102,1558.5
4209.490537643433,2096.625
4217.711687088013,2613.75
4224.8218059539795,2984.0625
4232.213258743286,3114.5625
4239.009141921997,3045.75
4246.822357177734,2732.0625
4253.632068634033,2319.0
4261.161327362061,1851.0
4268.306255340576,1347.5625
4275.831937789917,1042.3125
4282.862424850464,909.75
4289.617538452148,1013.0625
4301.0094165802,1562.25
4308.019399642944,2021.625
4315.472364425659,2479.6875
4322.257280349731,2853.1875
4331.134796142578,3106.875
4337.932586669922,3069.75
4346.566677093506,2729.25
4353.668689727783,2315.0625
4362.993240356445,1693.5
4369.823455810547,1283.4375
4377.047061920166,1005.5625
4385.143995285034,922.875
4392.489194869995,1091.625
4400.520324707031,1495.125
4407.827615737915,2025.5625
4415.215730667114,2483.0625
4422.101259231567,2855.625
4429.740428924561,3094.125
4436.65885925293,3089.0625
4444.382429122925,2838.75
4451.2176513671875,2460.0
4458.058834075928,2000.25
4465.258836746216,1542.75
4472.080230712891,1170.1875
4479.474306106567,932.25
4486.332416534424,938.25
4493.658781051636,1139.625
4501.677513122559,1569.75
4509.069919586182,2108.25
4516.019582748413,2556.375
4522.941589355469,2906.625
4530.731439590454,3108.1875
4538.3265018463135,3067.3125
4545.829772949219,2781.375
4552.743673324585,2382.9375
4560.163259506226,1839.0
4568.235397338867,1338.0
4575.396537780762,1036.3125
4582.426071166992,911.4375
4589.27321434021,986.25
4596.967697143555,1305.9375
4604.835748672485,1798.6875
4612.265586853027,2267.8125
4619.086265563965,2691.0
4626.391649246216,3025.6875
4633.256435394287,3117.0
4640.073537826538,3008.4375
4647.360563278198,2719.6875
4654.153108596802,2303.8125
4661.428689956665,1758.0
4668.233633041382,1334.625
4675.180673599243,1034.625
4682.136297225952,911.4375
4689.167737960815,988.125
4696.7973709106445,1308.75
4703.569650650024,1725.9375
4711.843013763428,2271.5625
4719.876289367676,2754.5625
4727.752685546875,3056.0625
4734.869718551636,3112.125
4742.00177192688,2970.0
4749.051809310913,2589.0
4755.854845046997,2145.1875
4765.204191207886,1532.0625
4772.025585174561,1162.6875
4780.38215637207,930.1875
4787.581920623779,962.625
4797.802209854126,1312.125
4807.909727096558,1962.9375
4817.391157150269,2634.0
4826.9054889678955,3028.6875
4834.876537322998,3111.75
4844.322681427002,2878.5
4852.558851242065,2370.5625
4861.056089401245,1826.25
4868.105173110962,1391.25
4876.285791397095,997.125
4883.487701416016,910.6875
4891.528606414795,1023.75
4898.696660995483,1378.875
4905.644416809082,1811.625
4914.178133010864,2430.1875
4921.46897315979,2817.1875
4928.863286972046,3081.1875
4935.785293579102,3100.6875
4943.936109542847,2875.6875
4952.210903167725,2440.5
4961.751461029053,1744.875
4969.152927398682,1324.125
4977.830410003662,967.5
4985.269069671631,915.9375
4993.710279464722,1152.375
5005.327939987183,1816.125
5021.791219711304,2820.375
5031.589984893799,3110.4375
5044.262409210205,2871.9375
5055.623531341553,2207.625
5067.290544509888,1448.0625
5079.632043838501,943.125
5088.122844696045,967.3125
5098.069667816162,1388.625
5106.0731410980225,1901.25
5115.935564041138,2512.875
5124.828100204468,2923.6875
5132.437944412231,3116.4375
5139.851093292236,3029.8125
5148.560047149658,2636.25
5157.981157302856,2044.6875
5165.809631347656,1511.8125
5173.527002334595,1101.75
5182.716846466064,909.9375
5190.238952636719,1031.25
5199.923276901245,1460.0625
5209.821462631226,2142.9375
5220.006704330444,2774.0625
5228.732347488403,3064.3125
5236.7188930511475,3096.9375
5246.849298477173,2754.9375
5257.070064544678,2116.875
5265.718460083008,1505.625
5275.22087097168,1056.1875
5283.546924591064,911.625
5292.973756790161,1117.125
5301.814317703247,1608.1875
5310.75119972229,2227.5
5319.4262981414795,2720.625
5327.278614044189,3040.125
5335.82067489624,3095.625
5345.924854278564,2807.25
5354.405879974365,2266.3125
5363.642692565918,1644.9375
5370.842933654785,1245.5625
5378.739833831787,959.4375
5385.970830917358,931.875
5393.6498165130615,1120.5
5401.894807815552,1612.875
5410.806655883789,2232.9375
5417.86789894104,2662.125
5424.818992614746,2974.875
5432.124853134155,3113.0625
5438.944101333618,3052.6875
5446.586847305298,2747.0625
5453.749418258667,2337.9375
5464.069128036499,1641.1875
5472.411394119263,1138.3125
5482.980728149414,910.5
5492.913722991943,1122.75
5502.8977394104,1690.875
5512.8984451293945,2313.0
5522.477626800537,2889.9375
5533.031225204468,3117.0
5542.824268341064,2948.4375
5552.9749393463135,2335.125
5561.927795410156,1789.6875
5568.8488483428955,1299.1875
5575.873136520386,1014.1875
5583.956718444824,912.375
5590.909004211426,1040.4375
5598.587274551392,1409.4375
5605.527400970459,1847.8125
5613.472700119019,2391.375
5620.373725891113,2788.125
5628.176212310791,3069.9375
5635.748624801636,3107.0625
5646.343469619751,2798.8125
5655.06386756897,2254.6875
5665.52472114563,1489.6875
5676.216125488281,1012.125
5686.748027801514,934.125
5697.977304458618,1349.0625
5707.930326461792,1931.0625
5720.288515090942,2791.6875
5730.121850967407,3091.5
5740.6487464904785,2982.9375
5752.179861068726,2400.375
5763.5698318481445,1628.625
5775.900602340698,1044.9375
5787.489414215088,954.9375
5799.643754959106,1418.25
5809.791326522827,2094.5625
5817.927122116089,2676.9375
5828.989267349243,3073.3125
5838.900566101074,3046.3125
5850.081443786621,2538.1875
5859.06982421875,1929.9375
5870.445251464844,1229.25
5883.470058441162,909.9375
5895.710468292236,1238.0625
5907.455921173096,1942.875
5919.589042663574,2742.5625
5929.962158203125,3093.375
5940.327882766724,3013.3125
5950.848340988159,2533.6875
5961.965799331665,1768.6875
5970.186710357666,1282.5
5981.715440750122,919.5
5992.883682250977,1092.0
6002.705097198486,1640.0625
6013.683557510376,2412.0
6022.826910018921,2905.3125
6034.222841262817,3112.6875
6046.127796173096,2783.0625
6056.383371353149,2154.9375
6068.610429763794,1339.125
6078.912973403931,949.875
6088.675260543823,986.0625
6099.578857421875,1432.6875
6109.653472900391,2111.0625
6117.479085922241,2626.5
6126.4379024505615,3025.5
6134.42063331604,3112.5
6141.686201095581,2972.25
6149.996519088745,2524.125
6156.989097595215,2071.5
6164.407253265381,1608.1875
6171.572685241699,1165.875
6180.2544593811035,930.5625
6187.210559844971,940.125
6194.653034210205,1194.75
6201.590061187744,1576.125
6210.116624832153,2115.5625
6218.3427810668945,2693.4375
6226.890802383423,3027.1875
6235.117197036743,3111.9375
6243.3881759643555,2882.0625
6251.800775527954,2449.3125
6259.135961532593,1988.625
6267.523527145386,1396.125
6274.599552154541,1071.375
6283.311367034912,910.3125
6290.484666824341,1021.3125
6300.081253051758,1508.8125
6306.9517612457275,1962.0
6314.897775650024,2496.9375
6321.71368598938,2865.375
6330.772876739502,3109.5
6337.566375732422,3063.9375
6347.128391265869,2714.25
6356.0991287231445,2142.0
6363.572597503662,1674.75
6370.3601360321045,1268.8125
6378.73387336731,946.875
6385.567426681519,926.0625
6394.168138504028,1148.8125
6402.097940444946,1583.8125
6409.336805343628,2123.8125
6416.226863861084,2570.0625
6423.057556152344,2916.0
6430.465459823608,3098.25
6437.326669692993,3084.375
6444.48447227478,2825.8125
6451.279878616333,2441.8125
6458.1310749053955,1980.1875
6465.234994888306,1524.9375
6472.07498550415,1157.8125
6479.328870773315,945.5625
6486.147403717041,926.8125
6493.439435958862,1151.4375
6501.393556594849,1587.5625
6508.2597732543945,2049.375
6515.292406082153,2504.625
6522.088527679443,2870.8125
6529.395818710327,3081.9375
6536.195993423462,3099.9375
6543.418884277344,2873.8125
6551.354885101318,2438.0625
6558.361291885376,1976.0625
6565.367221832275,1521.0
6572.170972824097,1155.0
6579.474687576294,944.4375
6586.2462520599365,927.375
6593.467712402344,1153.875
6601.429462432861,1591.875
6608.324289321899,2053.5
6615.285396575928,2508.1875
6622.054815292358,2873.4375
6629.275560379028,3083.0625
6636.091232299805,3099.1875
6643.415927886963,2871.75
6651.3330936431885,2506.125
6658.153533935547,2050.875
6665.21143913269,1517.4375
6671.989917755127,1152.75
6679.204702377319,943.6875
6685.965061187744,928.125
6693.471670150757,1156.5
6701.403856277466,1523.625
6708.29701423645,2057.25
6715.725898742676,2511.9375
6722.488641738892,2876.0625
6729.966402053833,3100.3125
6736.78183555603,3081.375
6744.295835494995,2869.3125
6751.091003417969,2502.375
6757.925987243652,2046.75
6765.122175216675,1513.875
6773.042440414429,1103.25
6781.066417694092,926.25
6787.988185882568,969.1875
6795.184373855591,1211.25
6803.105354309082,1673.0625
6810.78577041626,2217.9375
6817.639112472534,2650.3125
6824.493169784546,2967.375
6831.7625522613525,3111.75
6838.611602783203,3057.5625
6846.600770950317,2758.125
6853.593587875366,2352.1875
6862.142324447632,1730.625
6869.011640548706,1312.875
6876.6491413116455,989.625
6883.841753005981,911.0625
6890.76042175293,1032.0
6898.3800411224365,1394.4375
6905.457973480225,1830.0
6913.3195877075195,2374.125
6920.18723487854,2775.0
6927.66261100769,3037.6875
6934.690475463867,3109.125
6941.867351531982,2955.75
6949.100971221924,2631.375
6955.919504165649,2195.625
6964.0092849731445,1651.875
6970.861911773682,1251.0
6978.715896606445,961.875
6985.470294952393,918.1875
6994.10080909729,1164.1875
7002.122640609741,1606.5
7011.45076751709,2226.0
7020.017623901367,2778.1875
7030.266046524048,3102.375
7040.2655601501465,2992.125
7050.983428955078,2490.9375
7062.736988067627,1722.375
7072.159767150879,1141.875
7081.687211990356,914.0625
